# Published in J. Chem. Theory Comput. 2021, 17, 3, 1662-1677	
#  Minimax grids with 32 points, for different energy ranges (Erange)	
# Grid-points: 32.  N Eranges: 19	
	
# Column1: Frequency    column2: weight	# Column3: Time    column4: weight
	
Erange 0.0000 4862.0	   
	
0.13254275519610229             0.2667161148094765   	6.390102821995496e-05            0.0001644750107629364         
0.4075002434334006              0.2866077185534088          	0.0003410048490902184            0.0003927652580734362                                 
0.7129653611128071              0.32818422173681944    	0.000858015893339577             0.0006470526340880139                                
1.072311142230351               0.3951613742572797          	0.0016504328288047757            0.0009476004809462573                                 
1.5137054634325515              0.4934816587166093    	0.002778247721262644             0.0013236672585754251                                
2.072585907106472               0.6318550781930461   	0.004336751679872466             0.00181722804655121                                
2.7948198255241965              0.8226002283812441          	0.0064710209548362084            0.0024863648293148356                                 
3.7408887157784005              1.0828685966380414    	0.009393407912277671             0.0034080264366486593                                
4.991538722697482               1.4363782680324575   	0.01340416788754177              0.004681956510169319                               
6.655495576177275               1.915847231861476   		0.018917565422190717             0.006437986099490384                                
8.880073834050316               2.566403777298568   		0.026497301468281335             0.00884737093390095                                
11.865844968082882              3.4503727336112044    	0.036905213045864395             0.01213798662642807                                
15.88700871736706               4.654008952170379   		0.0511672148624311               0.01661375946425665                              
21.319800434807853              6.29699863203509    		0.07066128158960995              0.022679584239104586                               
28.682257688821725              8.545911800328465    	0.09723384839331731              0.030873595466529645                               
38.69010148421391               11.633320983339523   	0.13335312533591778              0.0419091652309378                               
52.335569763753064              15.885087444621595    	0.18231048817210543              0.05672961944641861                               
70.99909077535013               21.759494015934315   	0.24848450523394644              0.07657952416894345                               
96.60819689305963               29.903701501622987   	0.3376865863344385               0.10309761695759492                              
131.86486082729905              41.235837219460294    	0.4576131552357413               0.13843826485639682                              
180.57288090293983              57.06571237167945    	0.6184374387625521               0.18543118617833296                              
248.11368921054333              79.27552554087899    	0.8335859250026539               0.24779409719067566                              
342.14755601137466              110.59838219031958    	1.1207633263472254               0.3304222201755898                              
473.67067120472257              155.06890815199284    	1.5033220996389998               0.43979746242641576                              
658.6709548634489               218.81060764214297   	2.0121331479703484               0.5846010059990558                              
920.892639935345                311.5722127601456  		2.6882384204905283               0.7767070228661042                              
1296.9341360028814              450.16760079454133    	3.5868412256539663               1.0329650164221098                              
1847.0377800992435              667.4313363099551    	4.783852020373796                1.3787901136203442                             
2682.1510880264454              1039.6543728256195      	6.387973693919086 		  1.8564287417380754      
4047.085323969744               1789.9748349736915   	8.566792744620582                2.547529279131862                             
6660.040272218769               3833.9681364720745   	11.61702931918549                3.6531886321446416                             
14108.029689918747              14655.44632366239    	16.243244163196902               5.969270620351697                              
	
Erange 4862.0 5846.0	
	
0.1343248849882633              0.2703480614473483  		5.442349002883837e-05            0.0001401015051695221   
0.4132592119099152              0.2910756261579897   	0.0002906163628933693            0.00033499665110023704   
0.7240043390799359              0.3344559767841716          	0.0007321293214401846            0.0005532522530987489   
1.091026925935713               0.40448278489060463         	0.0014109784539713872            0.0008133560062402562   
1.54395256157537                0.5075565457043502          	0.0023816365307190094            0.0011422450286066607   
2.120249021729213               0.6530872691721998       	0.0037311772208214787            0.0015787618621387204   
2.8686740645792272              0.8544340076849473         	0.005592773584012946             0.002176697085238142  
3.8538693799190424              1.130277093651096           	0.0081619152463338               0.0030073676766694266                                  
5.162601596809094               1.506570063148876           	0.011715729132325964             0.004163649639092577  
6.912333890906867               2.019293595727479           	0.016637929524033673             0.005767402761174793  
9.263083009950755               2.718337239493882           	0.023453105417011018             0.007980687395399007  
12.433910552841194              3.6729796521022116          	0.03287403908552556              0.011020625281672214 
16.725965711187758              4.9796461563368934          	0.045865900699847945             0.015178459352483943  
22.554817278001472              6.772925073652045           	0.06373214396298486              0.020844174229750198 
30.49600178512726               9.241267903229764           	0.08822857905561622              0.028538588286649656 
41.3494455589017                12.649452794111886          	0.12171425464017217              0.03895532923923562 
56.23095197989688               17.370863762271927          	0.16735049859917261              0.05301575138551127 
76.70267881628598               23.934101209739133        	0.22936294868166074              0.07194074865569469 
104.96008395875586              33.090676974430735    	0.3133859506800179               0.09734467595148226                                  
144.10119183719314              45.914061903125    		0.4269147709487938               0.1313584288969531                                  
198.5169327875596               63.94611611042478   		0.5798994400836499               0.17679160298883081                                  
274.4618860978532               89.41703574194196   		0.7855261781163106               0.23734854692003116                                  
380.899499080189                125.58445451312652  		1.0612512378052221               0.31792227850976007                                  
530.7797694607106               177.27970461634078   	1.4301841263166695               0.42500882037583165                                  
743.0392454072074               251.853187763381   		1.9229772371853768               0.5673248919963556                                  
1045.9229630462034              360.99548168525195    	2.580501782235826                0.7568049338284129                                 
1483.0537807692358              524.7699272889096    	3.4578625966778955               1.0103817704846647                                  
2126.1516611014854              782.0601891451947    	4.630962088019041                1.3535647228420928                                 
3106.7411184121765              1222.611932252175    	6.208582258228505                1.8286721197765015                                 
4713.500361879859               2108.162233431274   		8.358418878620247                2.517319618502594                                 
7790.3641571104345              4512.831122628449    	11.37712612667173                3.6202102280059703                                 
16548.445240300603              17222.120678400817    	15.968170544511102               5.930981680526662                                  
	
Erange 5846.0 6665.0 	
	
0.13557338601660668             0.27289359484351916         	4.8544808464658475e-05           0.00012498176375406726    
0.41730065260389615             0.294220982001665     	0.0002593485712181486            0.000299130758824733  
0.7317746815552322              0.3388980759862916    	0.0006539518705617748            0.0004949254877793316  
1.104251698157746               0.411123396942743   		0.0012620998863735048            0.0007296849915859161  
1.5654155709323194              0.5176359133047135    	0.002134648029009164             0.0010288042473983914 
2.1542162086848187              0.668364809184891    	0.003353250117842424             0.0014290235014882077 
2.9215329135167067              0.8774440884042964    	0.005043178699940835             0.0019812415860893163 
3.9350769825526832              1.1646980641075588    	0.007388686080392843             0.0027529950493393966 
5.286080227577014               1.557761149115098   		0.010651467508498257             0.00383257137438519 
7.0985194219082555              2.0950797638638385    	0.01519484467183565              0.005336492795437645                                  
9.541929524180782               2.8301605859021666   	0.02151725732341947              0.007420608589016774                                  
12.849299970750083              3.837593566983341    	0.03029858754646109              0.01029470391501449                                  
17.34218791649807               5.221615251219452   		0.04246309490817034              0.014241296894904196                                  
23.466110116962277              7.128324609566002    	0.05926381239480956              0.01964004703493962                                  
31.840626080497724              9.763174149466698    	0.08239494336727046              0.02699971016577413                                  
43.33050125803531               13.41611573645175   		0.11414097839482948              0.03700007872604122                                  
59.147245510736425              18.497910846798998    	0.15757400511758252              0.050547012803328586                                  
80.99462553628598               25.59282079046985   		0.21681422548727597              0.06884458868981981                                  
111.2781774935937               35.53550575895753   		0.29737332757633034              0.09348967784530542                                  
153.40846663158962              49.524062051914576    	0.4066065418252456               0.12659613160197555                                 
212.24282951584453              69.28781614975094    	0.5543077141349219               0.17095862941207848                                 
294.7341924733544               97.34010675862754   		0.7534939940706474               0.2302711267303353                                 
410.8955699804921               137.36838088542098   	1.0214457127670413               0.3094239152326776                                 
575.2616255690891               194.86122705934486   	1.3810991072747199               0.4149216994326361                                 
809.1768735737788               278.18695350675137   	1.8629492914867638               0.555505084520509                                 
1144.5847770269388              400.6526832866276    	2.5077428833752067               0.7431502415960526                                 
1630.9076924124556              585.0253370519614    	3.370510682262872                0.9948487920453783                                
2349.3603614162894              875.1939500761971    	4.52714545796296                 1.3361777826685788                               
3448.4571118322583              1371.947991018934    	6.086483167699423                1.809509286088653                                
5252.914668389623               2368.536327804507   		8.216299008759131                2.496441460806496                                
8709.488526056672               5068.399861166353   		11.213210923746692               3.597410863544938                                 
18538.811858380694              19319.551508880766    	15.779945298966286               5.9045255378523525                                 
	
Erange 6665.0 7800.0 	
	
0.1370499857872464              0.27590538134484827    	4.2319791684398945e-05           0.00010896980958811763   
0.422087838650514               0.2979573565068322   	0.0002262256833340046            0.0002611185815588283 
0.7410040914005517              0.3442035946496803    	0.0005710759339812151            0.00043301817888623847 
1.1200141103213002              0.41909606429356827    	0.0011041000499916853            0.0006406820460768114 
1.5910937845067552              0.5297935391581631    	0.0018721273080030145            0.0009077674409158128 
2.195011651443817               0.6868712744253185   	0.002950744254164121             0.001268624601649587                                  
2.985262954814932               0.9054313778178337   	0.004456329948077625             0.0017708556976942175                                  
4.033361919610758               1.2067332819592969   	0.006560445775378507             0.002477704567241762                                  
5.436098124858981               1.6205293980185511   	0.009507343812482433             0.0034722665030748113                                  
7.325593527943965               2.1883874721831376   	0.013637283047013359             0.004865004260125733                                  
9.883341376758114               2.9684149635372044   	0.01941907839765781              0.006804656478190395                                 
13.359912878263156              4.041990934394181    	0.027495223047590025             0.009492536281842186                                  
18.102752475144438              5.523387463777131    	0.03874330338636378              0.013201017163803366                                 
24.595554809189636              7.573569384258536    	0.054358588747561776             0.01829768554187978                                  
33.51428674450282               10.420063818936963   	0.07596440384363516              0.025277118873799437                                 
45.80722857230063               14.385689720800096   	0.10575909660902735              0.034802761118126926                                 
62.80982762248363               19.930287584151156   	0.14671121294566578              0.04776205831199323                                 
86.41024933404324               27.711636209408702   	0.20281810337064493              0.06533896907314592                                 
119.28915593140628              38.67488869797654    	0.27944792395127677              0.08910928388293891                                 
165.26885298524112              54.18479605908046    	0.38379131316561327              0.1211660799438405                                 
229.82488386010735              76.22300391975581    	0.525457692252208                0.16428554188642505                               
320.8416671697241               107.6864815178738   		0.7172635733637082               0.22214824519628396                                
449.7412806501914               152.8489241029493  	 	0.9762793617085143               0.29963998828115096                                
633.1998473772219               218.10116939555124   	1.3252331952635001               0.40327442471190905                                
895.83705332351                 313.21671931714536 		1.7944297509586076               0.5418192779326029                                
1274.6569305047908              453.742571335189   	 	2.4244629711653745               0.7272994796496782                                
1827.0549682010767              666.1923552433152    	3.270270626899914                0.9767765646718063                               
2647.329246149724               1001.3603174380673   	4.407729666691881                1.315909458684106                               
3907.374072374449               1575.1576866889702   	5.945738068832148                1.7871373292268897                               
5981.275709049701               2723.745097867967   		8.052167730865541                2.4720433230436907                               
9956.014230886252               5826.475195617796   		11.023603896745234               3.5707586649853615                                
21245.91059831021               22177.608473258828   	15.561924493694205               5.873612522584144                                
	
Erange 7800.0 10044.0 	
	
0.1393751435556022              0.28065064408654583    	3.393255390660133e-05            8.739335036060486e-05 
0.4296428076126454              0.3038780328549319    	0.00018157221465841256           0.00020983760313852035  
0.7556269118458908              0.3526759573849975    	0.0004592307676320871            0.0003493229451058535 
1.1451112107395522              0.4319215261801991    	0.0008905276367436023            0.0005199664146008647 
1.6321993263496475              0.5494801124103226    	0.0015164746316516245            0.0007428694438573918 
2.260676043411754               0.7170195083647463   	0.0024038182425049908            0.001048824687194698 
3.088405025081973               0.9512879181334657   	0.003655880996707775             0.0014805150854819704                                  
4.193293537779408               1.2759995304848823   	0.0054255179504103905            0.0020948189118065326 
5.681535826776683               1.7245524024350398   	0.007931245931576318             0.0029671598393268173                                  
7.69912759768035                2.3439221516534534  		0.0114792650369607               0.004198990073584458                                
10.448065969109644              3.2002414143320297    	0.01649451279684121              0.005928343272370908                                 
14.209271435146666              4.386814440304756    	0.023563843280162002             0.008343628060712927                                  
19.375182226620723              6.0356680674184835    	0.033494992691347265             0.011701624144711492                                  
26.496316789495793              8.334263247492462    	0.047396265575400595             0.0163512213147089                                  
36.34808912459801               11.549773796002393   	0.06678363974811272              0.022764888824347185                                 
50.02711707757524               16.064517095499955   	0.093724229945987                0.03158039794694182                               
69.09067912961464               22.427907607712154   	0.13102792038715239              0.04365605404949107                                 
95.75961436726789               31.43303552982579   		0.18250270781166214              0.06014369592103612                                 
133.21501966925618              44.23019793781067    	0.2532942033927338               0.08258509281019695                                
